0,0.01
1,0.019122
2,0.027909
3,0.036442
4,0.044767
5,0.05291
6,0.060891
7,0.068726
8,0.076425
9,0.083998
10,0.091455
11,0.098801
12,0.106042
13,0.113184
14,0.120231
15,0.127188
16,0.134058
17,0.140845
18,0.147551
19,0.154179
20,0.160733
21,0.167215
22,0.173626
23,0.179969
24,0.186245
25,0.192458
26,0.198607
27,0.204696
28,0.210725
29,0.216697
30,0.222611
31,0.22847
32,0.234275
33,0.240027
34,0.245727
35,0.251376
36,0.256976
37,0.262527
38,0.26803
39,0.273486
40,0.278897
41,0.284262
42,0.289582
43,0.294859
44,0.300094
45,0.305286
46,0.310436
47,0.315546
48,0.320616
49,0.325647
50,0.330638
51,0.335592
52,0.340507
53,0.345386
54,0.350228
55,0.355034
56,0.359805
57,0.36454
58,0.369241
59,0.373908
60,0.378541
61,0.383141
62,0.387709
63,0.392244
64,0.396747
65,0.401219
66,0.40566
67,0.41007
68,0.41445
69,0.4188
70,0.42312
71,0.427411
72,0.431673
73,0.435907
74,0.440112
75,0.44429
76,0.44844
77,0.452562
78,0.456658
79,0.460727
80,0.46477
81,0.468787
82,0.472778
83,0.476743
84,0.480683
85,0.484598
86,0.488488
87,0.492354
88,0.496196
89,0.500014
90,0.503808
91,0.507578
92,0.511325
93,0.515049
94,0.518751
95,0.522429
96,0.526086
97,0.52972
98,0.533332
99,0.536923
100,0.540492
101,0.544039
102,0.547566
103,0.551071
104,0.554556
105,0.55802
106,0.561464
107,0.564888
108,0.568291
109,0.571675
110,0.575039
111,0.578384
112,0.581709
113,0.585015
114,0.588302
115,0.591571
116,0.59482
117,0.598052
118,0.601264
119,0.604459
120,0.607635
121,0.610794
122,0.613935
123,0.617058
124,0.620164
125,0.623252
126,0.626323
127,0.629377
128,0.632415
129,0.635435
130,0.638439
131,0.641426
132,0.644397
133,0.647352
134,0.65029
135,0.653213
136,0.65612
137,0.65901
138,0.661886
139,0.664745
140,0.66759
141,0.670419
142,0.673233
143,0.676031
144,0.678815
145,0.681584
146,0.684338
147,0.687078
148,0.689803
149,0.692514
150,0.69521
151,0.697892
152,0.70056
153,0.703214
154,0.705855
155,0.708481
156,0.711094
157,0.713693
158,0.716278
159,0.71885
160,0.721409
161,0.723955
162,0.726487
163,0.729006
164,0.731513
165,0.734006
166,0.736487
167,0.738955
168,0.74141
169,0.743853
170,0.746284
171,0.748702
172,0.751108
173,0.753502
174,0.755883
175,0.758253
176,0.76061
177,0.762956
178,0.76529
179,0.767612
180,0.769922
181,0.772221
182,0.774509
183,0.776785
184,0.77905
185,0.781303
186,0.783546
187,0.785777
188,0.787997
189,0.790206
190,0.792404
191,0.794591
192,0.796768
193,0.798934
194,0.801089
195,0.803234
196,0.805368
197,0.807492
198,0.809605
199,0.811708
200,0.813801
201,0.815883
202,0.817956
203,0.820018
204,0.822071
205,0.824113
206,0.826146
207,0.828168
208,0.830181
209,0.832185
210,0.834178
211,0.836162
212,0.838137
213,0.840102
214,0.842058
215,0.844004
216,0.845941
217,0.847869
218,0.849787
219,0.851697
220,0.853597
221,0.855488
222,0.857371
223,0.859244
224,0.861109
225,0.862964
226,0.864811
227,0.866649
228,0.868479
229,0.8703
230,0.872112
231,0.873916
232,0.875711
233,0.877498
234,0.879277
235,0.881047
236,0.882809
237,0.884563
238,0.886308
239,0.888046
240,0.889775
241,0.891496
242,0.89321
243,0.894915
244,0.896612
245,0.898302
246,0.899983
247,0.901657
248,0.903323
249,0.904982
250,0.906633
251,0.908276
252,0.909911
253,0.91154
254,0.91316
255,0.914773
256,0.916379
257,0.917978
258,0.919569
259,0.921152
260,0.922729
261,0.924298
262,0.92586
263,0.927415
264,0.928963
265,0.930504
266,0.932038
267,0.933565
268,0.935085
269,0.936598
270,0.938104
271,0.939604
272,0.941096
273,0.942582
274,0.944061
275,0.945534
276,0.947
277,0.948459
278,0.949911
279,0.951357
280,0.952797
281,0.95423
282,0.955657
283,0.957077
284,0.958491
285,0.959898
286,0.961299
287,0.962694
288,0.964083
289,0.965466
290,0.966842
291,0.968212
292,0.969576
293,0.970934
294,0.972286
295,0.973632
296,0.974972
297,0.976306
298,0.977634
299,0.978956
300,0.980272
301,0.981583
302,0.982887
303,0.984186
304,0.985479
305,0.986767
306,0.988048
307,0.989324
308,0.990595
309,0.99186
310,0.993119
311,0.994373
312,0.995621
313,0.996863
314,0.998101
315,0.999332
316,1.000559
317,1.00178
318,1.002995
319,1.004206
320,1.005411
321,1.00661
322,1.007805
323,1.008994
324,1.010178
325,1.011357
326,1.012531
327,1.013699
328,1.014863
329,1.016021
330,1.017175
331,1.018323
332,1.019467
333,1.020605
334,1.021738
335,1.022867
336,1.023991
337,1.025109
338,1.026223
339,1.027332
340,1.028437
341,1.029536
342,1.030631
343,1.031721
344,1.032806
345,1.033887
346,1.034963
347,1.036034
348,1.037101
349,1.038163
350,1.039221
351,1.040274
352,1.041322
353,1.042366
354,1.043405
355,1.04444
356,1.045471
357,1.046497
358,1.047519
359,1.048536
360,1.049549
361,1.050558
362,1.051562
363,1.052562
364,1.053558
365,1.054549
366,1.055536
367,1.056519
368,1.057498
369,1.058473
370,1.059443
371,1.06041
372,1.061372
373,1.06233
374,1.063284
375,1.064234
376,1.06518
377,1.066122
378,1.06706
379,1.067994
380,1.068924
381,1.06985
382,1.070772
383,1.07169
384,1.072604
385,1.073515
386,1.074421
387,1.075324
388,1.076223
389,1.077118
390,1.078009
391,1.078897
392,1.079781
393,1.080661
394,1.081537
395,1.08241
396,1.083279
397,1.084144
398,1.085006
399,1.085864
400,1.086718
401,1.087569
402,1.088416
403,1.08926
404,1.0901
405,1.090936
406,1.091769
407,1.092599
408,1.093425
409,1.094248
410,1.095067
411,1.095882
412,1.096695
413,1.097504
414,1.098309
415,1.099111
416,1.09991
417,1.100706
418,1.101498
419,1.102286
420,1.103072
421,1.103854
422,1.104633
423,1.105409
424,1.106181
425,1.10695
426,1.107717
427,1.108479
428,1.109239
429,1.109995
430,1.110749
431,1.111499
432,1.112246
433,1.11299
434,1.113731
435,1.114469
436,1.115203
437,1.115935
438,1.116664
439,1.117389
440,1.118112
441,1.118831
442,1.119548
443,1.120262
444,1.120972
445,1.12168
446,1.122385
447,1.123087
448,1.123786
449,1.124482
450,1.125175
451,1.125865
452,1.126553
453,1.127237
454,1.127919
455,1.128598
456,1.129274
457,1.129948
458,1.130618
459,1.131286
460,1.131951
461,1.132614
462,1.133273
463,1.13393
464,1.134584
465,1.135236
466,1.135884
467,1.136531
468,1.137174
469,1.137815
470,1.138453
471,1.139089
472,1.139722
473,1.140352
474,1.14098
475,1.141605
476,1.142227
477,1.142847
478,1.143465
479,1.14408
480,1.144692
481,1.145302
482,1.14591
483,1.146515
484,1.147117
485,1.147717
486,1.148315
487,1.14891
488,1.149502
489,1.150092
490,1.15068
491,1.151266
492,1.151849
493,1.152429
494,1.153008
495,1.153583
496,1.154157
497,1.154728
498,1.155297
499,1.155864
500,1.156428
501,1.15699
502,1.157549
503,1.158107
504,1.158662
505,1.159214
506,1.159765
507,1.160313
508,1.160859
509,1.161403
510,1.161945
511,1.162484
512,1.163022
513,1.163557
514,1.164089
515,1.16462
516,1.165149
517,1.165675
518,1.166199
519,1.166721
520,1.167241
521,1.167759
522,1.168275
523,1.168789
524,1.1693
525,1.16981
526,1.170317
527,1.170823
528,1.171326
529,1.171828
530,1.172327
531,1.172824
532,1.173319
533,1.173813
534,1.174304
535,1.174793
536,1.17528
537,1.175766
538,1.176249
539,1.17673
540,1.17721
541,1.177687
542,1.178163
543,1.178636
544,1.179108
545,1.179578
546,1.180046
547,1.180512
548,1.180976
549,1.181438
550,1.181899
551,1.182357
552,1.182814
553,1.183269
554,1.183722
555,1.184173
556,1.184622
557,1.18507
558,1.185516
559,1.18596
560,1.186402
561,1.186842
562,1.187281
563,1.187718
564,1.188153
565,1.188586
566,1.189018
567,1.189447
568,1.189876
569,1.190302
570,1.190727
571,1.19115
572,1.191571
573,1.19199
574,1.192408
575,1.192825
576,1.193239
577,1.193652
578,1.194063
579,1.194473
580,1.194881
581,1.195287
582,1.195692
583,1.196095
584,1.196496
585,1.196896
586,1.197294
587,1.197691
588,1.198086
589,1.198479
590,1.198871
591,1.199261
592,1.19965
593,1.200037
594,1.200423
595,1.200807
596,1.201189
597,1.20157
598,1.20195
599,1.202328
600,1.202704
601,1.203079
602,1.203452
603,1.203824
604,1.204195
605,1.204564
606,1.204931
607,1.205297
608,1.205662
609,1.206025
610,1.206387
611,1.206747
612,1.207106
613,1.207463
614,1.207819
615,1.208173
616,1.208526
617,1.208878
618,1.209228
619,1.209577
620,1.209925
621,1.210271
622,1.210615
623,1.210959
624,1.211301
625,1.211641
626,1.21198
627,1.212318
628,1.212655
629,1.21299
630,1.213324
631,1.213656
632,1.213988
633,1.214317
634,1.214646
635,1.214973
636,1.215299
637,1.215624
638,1.215947
639,1.216269
640,1.21659
641,1.21691
642,1.217228
643,1.217545
644,1.217861
645,1.218175
646,1.218488
647,1.2188
648,1.219111
649,1.219421
650,1.219729
651,1.220036
652,1.220342
653,1.220646
654,1.22095
655,1.221252
656,1.221553
657,1.221853
658,1.222151
659,1.222449
660,1.222745
661,1.22304
662,1.223334
663,1.223627
664,1.223918
665,1.224209
666,1.224498
667,1.224786
668,1.225073
669,1.225359
670,1.225643
671,1.225927
672,1.226209
673,1.226491
674,1.226771
675,1.22705
676,1.227328
677,1.227605
678,1.227881
679,1.228156
680,1.228429
681,1.228702
682,1.228973
683,1.229243
684,1.229513
685,1.229781
686,1.230048
687,1.230314
688,1.230579
689,1.230843
690,1.231106
691,1.231368
692,1.231629
693,1.231889
694,1.232148
695,1.232406
696,1.232663
697,1.232918
698,1.233173
699,1.233427
700,1.23368
701,1.233931
702,1.234182
703,1.234432
704,1.234681
705,1.234929
706,1.235175
707,1.235421
708,1.235666
709,1.23591
710,1.236153
711,1.236395
712,1.236636
713,1.236876
714,1.237115
715,1.237354
716,1.237591
717,1.237827
718,1.238063
719,1.238297
720,1.238531
721,1.238763
722,1.238995
723,1.239226
724,1.239456
725,1.239685
726,1.239913
727,1.24014
728,1.240366
729,1.240591
730,1.240816
731,1.24104
732,1.241262
733,1.241484
734,1.241705
735,1.241925
736,1.242145
737,1.242363
738,1.24258
739,1.242797
740,1.243013
741,1.243228
742,1.243442
743,1.243655
744,1.243868
745,1.244079
746,1.24429
747,1.2445
748,1.244709
749,1.244917
750,1.245125
751,1.245332
752,1.245537
753,1.245742
754,1.245947
755,1.24615
756,1.246353
757,1.246554
758,1.246756
759,1.246956
760,1.247155
761,1.247354
762,1.247552
763,1.247749
764,1.247945
765,1.248141
766,1.248336
767,1.24853
768,1.248723
769,1.248915
770,1.249107
771,1.249298
772,1.249488
773,1.249678
774,1.249867
775,1.250055
776,1.250242
777,1.250429
778,1.250614
779,1.250799
780,1.250984
781,1.251167
782,1.25135
783,1.251533
784,1.251714
785,1.251895
786,1.252075
787,1.252254
788,1.252433
789,1.252611
790,1.252788
791,1.252965
792,1.253141
793,1.253316
794,1.25349
795,1.253664
796,1.253837
797,1.25401
798,1.254181
799,1.254353
800,1.254523
801,1.254693
802,1.254862
803,1.25503
804,1.255198
805,1.255365
806,1.255532
807,1.255697
808,1.255863
809,1.256027
810,1.256191
811,1.256354
812,1.256517
813,1.256679
814,1.25684
815,1.257001
816,1.257161
817,1.25732
818,1.257479
819,1.257637
820,1.257795
821,1.257952
822,1.258108
823,1.258264
824,1.258419
825,1.258573
826,1.258727
827,1.258881
828,1.259033
829,1.259185
830,1.259337
831,1.259488
832,1.259638
833,1.259788
834,1.259937
835,1.260086
836,1.260234
837,1.260381
838,1.260528
839,1.260674
840,1.26082
841,1.260965
842,1.26111
843,1.261254
844,1.261397
845,1.26154
846,1.261682
847,1.261824
848,1.261965
849,1.262106
850,1.262246
851,1.262385
852,1.262524
853,1.262663
854,1.262801
855,1.262938
856,1.263075
857,1.263211
858,1.263347
859,1.263482
860,1.263617
861,1.263751
862,1.263885
863,1.264018
864,1.264151
865,1.264283
866,1.264415
867,1.264546
868,1.264676
869,1.264806
870,1.264936
871,1.265065
872,1.265193
873,1.265321
874,1.265449
875,1.265576
876,1.265703
877,1.265829
878,1.265954
879,1.266079
880,1.266204
881,1.266328
882,1.266452
883,1.266575
884,1.266697
885,1.26682
886,1.266941
887,1.267063
888,1.267183
889,1.267304
890,1.267423
891,1.267543
892,1.267662
893,1.26778
894,1.267898
895,1.268016
896,1.268133
897,1.268249
898,1.268365
899,1.268481
900,1.268596
901,1.268711
902,1.268825
903,1.268939
904,1.269053
905,1.269166
906,1.269278
907,1.26939
908,1.269502
909,1.269613
910,1.269724
911,1.269834
912,1.269944
913,1.270054
914,1.270163
915,1.270272
916,1.27038
917,1.270488
918,1.270595
919,1.270702
920,1.270809
921,1.270915
922,1.271021
923,1.271126
924,1.271231
925,1.271335
926,1.27144
927,1.271543
928,1.271647
929,1.271749
930,1.271852
931,1.271954
932,1.272056
933,1.272157
934,1.272258
935,1.272359
936,1.272459
937,1.272558
938,1.272658
939,1.272757
940,1.272855
941,1.272954
942,1.273051
943,1.273149
944,1.273246
945,1.273343
946,1.273439
947,1.273535
948,1.27363
949,1.273726
950,1.27382
951,1.273915
952,1.274009
953,1.274103
954,1.274196
955,1.274289
956,1.274382
957,1.274474
958,1.274566
959,1.274657
960,1.274748
961,1.274839
962,1.27493
963,1.27502
964,1.27511
965,1.275199
966,1.275288
967,1.275377
968,1.275465
969,1.275553
970,1.275641
971,1.275728
972,1.275815
973,1.275902
974,1.275989
975,1.276075
976,1.27616
977,1.276246
978,1.276331
979,1.276415
980,1.2765
981,1.276584
982,1.276667
983,1.276751
984,1.276834
985,1.276917
986,1.276999
987,1.277081
988,1.277163
989,1.277244
990,1.277325
991,1.277406
992,1.277487
993,1.277567
994,1.277647
995,1.277726
996,1.277806
997,1.277885
998,1.277963
999,1.278042
1000,1.27812
1001,1.278198
1002,1.278275
1003,1.278352
1004,1.278429
1005,1.278505
1006,1.278582
1007,1.278658
1008,1.278733
1009,1.278809
1010,1.278884
1011,1.278959
1012,1.279033
1013,1.279107
1014,1.279181
1015,1.279255
1016,1.279328
1017,1.279401
1018,1.279474
1019,1.279546
1020,1.279619
1021,1.279691
1022,1.279762
1023,1.279834
1024,1.279905
1025,1.279975
1026,1.280046
1027,1.280116
1028,1.280186
1029,1.280256
1030,1.280325
1031,1.280395
1032,1.280464
1033,1.280532
1034,1.280601
1035,1.280669
1036,1.280737
1037,1.280804
1038,1.280872
1039,1.280939
1040,1.281005
1041,1.281072
1042,1.281138
1043,1.281204
1044,1.28127
1045,1.281336
1046,1.281401
1047,1.281466
1048,1.281531
1049,1.281595
1050,1.281659
1051,1.281723
1052,1.281787
1053,1.281851
1054,1.281914
1055,1.281977
1056,1.28204
1057,1.282102
1058,1.282165
1059,1.282227
1060,1.282288
1061,1.28235
1062,1.282411
1063,1.282472
1064,1.282533
1065,1.282594
1066,1.282654
1067,1.282715
1068,1.282774
1069,1.282834
1070,1.282894
1071,1.282953
1072,1.283012
1073,1.283071
1074,1.283129
1075,1.283187
1076,1.283246
1077,1.283303
1078,1.283361
1079,1.283419
1080,1.283476
1081,1.283533
1082,1.283589
1083,1.283646
1084,1.283702
1085,1.283758
1086,1.283814
1087,1.28387
1088,1.283925
1089,1.283981
1090,1.284036
1091,1.28409
1092,1.284145
1093,1.284199
1094,1.284254
1095,1.284308
1096,1.284361
1097,1.284415
1098,1.284468
1099,1.284521
1100,1.284574
1101,1.284627
1102,1.284679
1103,1.284732
1104,1.284784
1105,1.284836
1106,1.284888
1107,1.284939
1108,1.28499
1109,1.285041
1110,1.285092
1111,1.285143
1112,1.285194
1113,1.285244
1114,1.285294
1115,1.285344
1116,1.285394
1117,1.285443
1118,1.285493
1119,1.285542
1120,1.285591
1121,1.28564
1122,1.285688
1123,1.285737
1124,1.285785
1125,1.285833
1126,1.285881
1127,1.285928
1128,1.285976
1129,1.286023
1130,1.28607
1131,1.286117
1132,1.286164
1133,1.286211
1134,1.286257
1135,1.286303
1136,1.286349
1137,1.286395
1138,1.286441
1139,1.286486
1140,1.286531
1141,1.286577
1142,1.286622
1143,1.286666
1144,1.286711
1145,1.286755
1146,1.2868
1147,1.286844
1148,1.286888
1149,1.286932
1150,1.286975
1151,1.287019
1152,1.287062
1153,1.287105
1154,1.287148
1155,1.287191
1156,1.287233
1157,1.287276
1158,1.287318
1159,1.28736
1160,1.287402
1161,1.287444
1162,1.287485
1163,1.287527
1164,1.287568
1165,1.287609
1166,1.28765
1167,1.287691
1168,1.287732
1169,1.287772
1170,1.287813
1171,1.287853
1172,1.287893
1173,1.287933
1174,1.287972
1175,1.288012
1176,1.288051
1177,1.288091
1178,1.28813
1179,1.288169
1180,1.288208
1181,1.288246
1182,1.288285
1183,1.288323
1184,1.288361
1185,1.288399
1186,1.288437
1187,1.288475
1188,1.288513
1189,1.28855
1190,1.288588
1191,1.288625
1192,1.288662
1193,1.288699
1194,1.288735
1195,1.288772
1196,1.288809
1197,1.288845
1198,1.288881
1199,1.288917
1200,1.288953
1201,1.288989
1202,1.289025
1203,1.28906
1204,1.289095
1205,1.289131
1206,1.289166
1207,1.289201
1208,1.289236
1209,1.28927
1210,1.289305
1211,1.289339
1212,1.289373
1213,1.289408
1214,1.289442
1215,1.289476
1216,1.289509
1217,1.289543
1218,1.289576
1219,1.28961
1220,1.289643
1221,1.289676
1222,1.289709
1223,1.289742
1224,1.289775
1225,1.289807
1226,1.28984
1227,1.289872
1228,1.289904
1229,1.289937
1230,1.289969
1231,1.29
1232,1.290032
1233,1.290064
1234,1.290095
1235,1.290127
1236,1.290158
1237,1.290189
1238,1.29022
1239,1.290251
1240,1.290282
1241,1.290312
1242,1.290343
1243,1.290373
1244,1.290403
1245,1.290434
1246,1.290464
1247,1.290494
1248,1.290524
1249,1.290553
1250,1.290583
1251,1.290612
1252,1.290642
1253,1.290671
1254,1.2907
1255,1.290729
1256,1.290758
1257,1.290787
1258,1.290816
1259,1.290844
1260,1.290873
1261,1.290901
1262,1.290929
1263,1.290957
1264,1.290985
1265,1.291013
1266,1.291041
1267,1.291069
1268,1.291096
1269,1.291124
1270,1.291151
1271,1.291179
1272,1.291206
1273,1.291233
1274,1.29126
1275,1.291287
1276,1.291314
1277,1.29134
1278,1.291367
1279,1.291393
1280,1.29142
1281,1.291446
1282,1.291472
1283,1.291498
1284,1.291524
1285,1.29155
1286,1.291576
1287,1.291601
1288,1.291627
1289,1.291652
1290,1.291678
1291,1.291703
1292,1.291728
1293,1.291753
1294,1.291778
1295,1.291803
1296,1.291828
1297,1.291852
1298,1.291877
1299,1.291901
1300,1.291926
1301,1.29195
1302,1.291974
1303,1.291998
1304,1.292022
1305,1.292046
1306,1.29207
1307,1.292094
1308,1.292118
1309,1.292141
1310,1.292165
1311,1.292188
1312,1.292211
1313,1.292234
1314,1.292258
1315,1.292281
1316,1.292304
1317,1.292326
1318,1.292349
1319,1.292372
1320,1.292394
1321,1.292417
1322,1.292439
1323,1.292462
1324,1.292484
1325,1.292506
1326,1.292528
1327,1.29255
1328,1.292572
1329,1.292594
1330,1.292615
1331,1.292637
1332,1.292659
1333,1.29268
1334,1.292701
1335,1.292723
1336,1.292744
1337,1.292765
1338,1.292786
1339,1.292807
1340,1.292828
1341,1.292849
1342,1.29287
1343,1.29289
1344,1.292911
1345,1.292931
1346,1.292952
1347,1.292972
1348,1.292992
1349,1.293013
1350,1.293033
1351,1.293053
1352,1.293073
1353,1.293092
1354,1.293112
1355,1.293132
1356,1.293152
1357,1.293171
1358,1.293191
1359,1.29321
1360,1.293229
1361,1.293249
1362,1.293268
1363,1.293287
1364,1.293306
1365,1.293325
1366,1.293344
1367,1.293363
1368,1.293381
1369,1.2934
1370,1.293419
1371,1.293437
1372,1.293456
1373,1.293474
1374,1.293493
1375,1.293511
1376,1.293529
1377,1.293547
1378,1.293565
1379,1.293583
1380,1.293601
1381,1.293619
1382,1.293637
1383,1.293654
1384,1.293672
1385,1.293689
1386,1.293707
1387,1.293724
1388,1.293742
1389,1.293759
1390,1.293776
1391,1.293793
1392,1.29381
1393,1.293827
1394,1.293844
1395,1.293861
1396,1.293878
1397,1.293895
1398,1.293912
1399,1.293928
1400,1.293945
1401,1.293961
1402,1.293978
1403,1.293994
1404,1.29401
1405,1.294027
1406,1.294043
1407,1.294059
1408,1.294075
1409,1.294091
1410,1.294107
1411,1.294123
1412,1.294139
1413,1.294155
1414,1.29417
1415,1.294186
1416,1.294201
1417,1.294217
1418,1.294232
1419,1.294248
1420,1.294263
1421,1.294278
1422,1.294294
1423,1.294309
1424,1.294324
1425,1.294339
1426,1.294354
1427,1.294369
1428,1.294384
1429,1.294399
1430,1.294413
1431,1.294428
1432,1.294443
1433,1.294457
1434,1.294472
1435,1.294486
1436,1.294501
1437,1.294515
1438,1.294529
1439,1.294544
1440,1.294558
1441,1.294572
1442,1.294586
1443,1.2946
1444,1.294614
1445,1.294628
1446,1.294642
1447,1.294656
1448,1.294669
1449,1.294683
1450,1.294697
1451,1.29471
1452,1.294724
1453,1.294737
1454,1.294751
1455,1.294764
1456,1.294778
1457,1.294791
1458,1.294804
1459,1.294817
1460,1.29483
1461,1.294844
1462,1.294857
1463,1.29487
1464,1.294883
1465,1.294895
1466,1.294908
1467,1.294921
1468,1.294934
1469,1.294947
1470,1.294959
1471,1.294972
1472,1.294984
1473,1.294997
1474,1.295009
1475,1.295022
1476,1.295034
1477,1.295046
1478,1.295059
1479,1.295071
1480,1.295083
1481,1.295095
1482,1.295107
1483,1.295119
1484,1.295131
1485,1.295143
1486,1.295155
1487,1.295167
1488,1.295179
1489,1.29519
1490,1.295202
1491,1.295214
1492,1.295225
1493,1.295237
1494,1.295248
1495,1.29526
1496,1.295271
1497,1.295283
1498,1.295294
1499,1.295305
1500,1.295317
1501,1.295328
1502,1.295339
1503,1.29535
1504,1.295361
1505,1.295372
1506,1.295383
1507,1.295394
1508,1.295405
1509,1.295416
1510,1.295427
1511,1.295438
1512,1.295448
1513,1.295459
1514,1.29547
1515,1.29548
1516,1.295491
1517,1.295501
1518,1.295512
1519,1.295522
1520,1.295533
1521,1.295543
1522,1.295554
1523,1.295564
1524,1.295574
1525,1.295584
1526,1.295595
1527,1.295605
1528,1.295615
1529,1.295625
1530,1.295635
1531,1.295645
1532,1.295655
1533,1.295665
1534,1.295675
1535,1.295684
1536,1.295694
1537,1.295704
1538,1.295714
1539,1.295723
1540,1.295733
1541,1.295743
1542,1.295752
1543,1.295762
1544,1.295771
1545,1.295781
1546,1.29579
1547,1.2958
1548,1.295809
1549,1.295818
1550,1.295828
1551,1.295837
1552,1.295846
1553,1.295855
1554,1.295864
1555,1.295873
1556,1.295882
1557,1.295892
1558,1.295901
1559,1.295909
1560,1.295918
1561,1.295927
1562,1.295936
1563,1.295945
1564,1.295954
1565,1.295963
1566,1.295971
1567,1.29598
1568,1.295989
1569,1.295997
1570,1.296006
1571,1.296014
1572,1.296023
1573,1.296031
1574,1.29604
1575,1.296048
1576,1.296057
1577,1.296065
1578,1.296073
1579,1.296082
1580,1.29609
1581,1.296098
1582,1.296106
1583,1.296115
1584,1.296123
1585,1.296131
1586,1.296139
1587,1.296147
1588,1.296155
1589,1.296163
1590,1.296171
1591,1.296179
1592,1.296187
1593,1.296195
1594,1.296202
1595,1.29621
1596,1.296218
1597,1.296226
1598,1.296233
1599,1.296241
1600,1.296249
1601,1.296256
1602,1.296264
1603,1.296272
1604,1.296279
1605,1.296287
1606,1.296294
1607,1.296301
1608,1.296309
1609,1.296316
1610,1.296324
1611,1.296331
1612,1.296338
1613,1.296346
1614,1.296353
1615,1.29636
1616,1.296367
1617,1.296374
1618,1.296382
1619,1.296389
1620,1.296396
1621,1.296403
1622,1.29641
1623,1.296417
1624,1.296424
1625,1.296431
1626,1.296438
1627,1.296445
1628,1.296451
1629,1.296458
1630,1.296465
1631,1.296472
1632,1.296479
1633,1.296485
1634,1.296492
1635,1.296499
1636,1.296505
1637,1.296512
1638,1.296519
1639,1.296525
1640,1.296532
1641,1.296538
1642,1.296545
1643,1.296551
1644,1.296558
1645,1.296564
1646,1.296571
1647,1.296577
1648,1.296583
1649,1.29659
1650,1.296596
1651,1.296602
1652,1.296609
1653,1.296615
1654,1.296621
1655,1.296627
1656,1.296633
1657,1.296639
1658,1.296646
1659,1.296652
1660,1.296658
1661,1.296664
1662,1.29667
1663,1.296676
1664,1.296682
1665,1.296688
1666,1.296694
1667,1.2967
1668,1.296705
1669,1.296711
1670,1.296717
1671,1.296723
1672,1.296729
1673,1.296735
1674,1.29674
1675,1.296746
1676,1.296752
1677,1.296757
1678,1.296763
1679,1.296769
1680,1.296774
1681,1.29678
1682,1.296786
1683,1.296791
1684,1.296797
1685,1.296802
1686,1.296808
1687,1.296813
1688,1.296819
1689,1.296824
1690,1.296829
1691,1.296835
1692,1.29684
1693,1.296845
1694,1.296851
1695,1.296856
1696,1.296861
1697,1.296867
1698,1.296872
1699,1.296877
1700,1.296882
1701,1.296887
1702,1.296893
1703,1.296898
1704,1.296903
1705,1.296908
1706,1.296913
1707,1.296918
1708,1.296923
1709,1.296928
1710,1.296933
1711,1.296938
1712,1.296943
1713,1.296948
1714,1.296953
1715,1.296958
1716,1.296963
1717,1.296968
1718,1.296973
1719,1.296977
1720,1.296982
1721,1.296987
1722,1.296992
1723,1.296997
1724,1.297001
1725,1.297006
1726,1.297011
1727,1.297015
1728,1.29702
1729,1.297025
1730,1.297029
1731,1.297034
1732,1.297039
1733,1.297043
1734,1.297048
1735,1.297052
1736,1.297057
1737,1.297061
1738,1.297066
1739,1.29707
1740,1.297075
1741,1.297079
1742,1.297084
1743,1.297088
1744,1.297092
1745,1.297097
1746,1.297101
1747,1.297105
1748,1.29711
1749,1.297114
1750,1.297118
1751,1.297123
1752,1.297127
1753,1.297131
1754,1.297135
1755,1.29714
1756,1.297144
1757,1.297148
1758,1.297152
1759,1.297156
1760,1.29716
1761,1.297164
1762,1.297168
1763,1.297173
1764,1.297177
1765,1.297181
1766,1.297185
1767,1.297189
1768,1.297193
1769,1.297197
1770,1.297201
1771,1.297205
1772,1.297209
1773,1.297213
1774,1.297216
1775,1.29722
1776,1.297224
1777,1.297228
1778,1.297232
1779,1.297236
1780,1.29724
1781,1.297243
1782,1.297247
1783,1.297251
1784,1.297255
1785,1.297258
1786,1.297262
1787,1.297266
1788,1.29727
1789,1.297273
1790,1.297277
1791,1.297281
1792,1.297284
1793,1.297288
1794,1.297291
1795,1.297295
1796,1.297299
1797,1.297302
1798,1.297306
1799,1.297309
1800,1.297313
1801,1.297316
1802,1.29732
1803,1.297323
1804,1.297327
1805,1.29733
1806,1.297334
1807,1.297337
1808,1.297341
1809,1.297344
1810,1.297348
1811,1.297351
1812,1.297354
1813,1.297358
1814,1.297361
1815,1.297364
1816,1.297368
1817,1.297371
1818,1.297374
1819,1.297378
1820,1.297381
1821,1.297384
1822,1.297387
1823,1.297391
1824,1.297394
1825,1.297397
1826,1.2974
1827,1.297403
1828,1.297407
1829,1.29741
1830,1.297413
1831,1.297416
1832,1.297419
1833,1.297422
1834,1.297425
1835,1.297428
1836,1.297432
1837,1.297435
1838,1.297438
1839,1.297441
1840,1.297444
1841,1.297447
1842,1.29745
1843,1.297453
1844,1.297456
1845,1.297459
1846,1.297462
1847,1.297465
1848,1.297468
1849,1.29747
1850,1.297473
1851,1.297476
1852,1.297479
1853,1.297482
1854,1.297485
1855,1.297488
1856,1.297491
1857,1.297493
1858,1.297496
1859,1.297499
1860,1.297502
1861,1.297505
1862,1.297507
1863,1.29751
1864,1.297513
1865,1.297516
1866,1.297518
1867,1.297521
1868,1.297524
1869,1.297527
1870,1.297529
1871,1.297532
1872,1.297535
1873,1.297537
1874,1.29754
1875,1.297543
1876,1.297545
1877,1.297548
1878,1.297551
1879,1.297553
1880,1.297556
1881,1.297558
1882,1.297561
1883,1.297563
1884,1.297566
1885,1.297569
1886,1.297571
1887,1.297574
1888,1.297576
1889,1.297579
1890,1.297581
1891,1.297584
1892,1.297586
1893,1.297589
1894,1.297591
1895,1.297594
1896,1.297596
1897,1.297598
1898,1.297601
1899,1.297603
1900,1.297606
1901,1.297608
1902,1.29761
1903,1.297613
1904,1.297615
1905,1.297618
1906,1.29762
1907,1.297622
1908,1.297625
1909,1.297627
1910,1.297629
1911,1.297631
1912,1.297634
1913,1.297636
1914,1.297638
1915,1.297641
1916,1.297643
1917,1.297645
1918,1.297647
1919,1.29765
1920,1.297652
1921,1.297654
1922,1.297656
1923,1.297658
1924,1.297661
1925,1.297663
1926,1.297665
1927,1.297667
1928,1.297669
1929,1.297671
1930,1.297674
1931,1.297676
1932,1.297678
1933,1.29768
1934,1.297682
1935,1.297684
1936,1.297686
1937,1.297688
1938,1.29769
1939,1.297692
1940,1.297695
1941,1.297697
1942,1.297699
1943,1.297701
1944,1.297703
1945,1.297705
1946,1.297707
1947,1.297709
1948,1.297711
1949,1.297713
1950,1.297715
1951,1.297717
1952,1.297719
1953,1.297721
1954,1.297723
1955,1.297724
1956,1.297726
1957,1.297728
1958,1.29773
1959,1.297732
1960,1.297734
1961,1.297736
1962,1.297738
1963,1.29774
1964,1.297742
1965,1.297744
1966,1.297745
1967,1.297747
1968,1.297749
1969,1.297751
1970,1.297753
1971,1.297755
1972,1.297756
1973,1.297758
1974,1.29776
1975,1.297762
1976,1.297764
1977,1.297765
1978,1.297767
1979,1.297769
1980,1.297771
1981,1.297772
1982,1.297774
1983,1.297776
1984,1.297778
1985,1.297779
1986,1.297781
1987,1.297783
1988,1.297785
1989,1.297786
1990,1.297788
1991,1.29779
1992,1.297791
1993,1.297793
1994,1.297795
1995,1.297796
1996,1.297798
1997,1.2978
1998,1.297801
1999,1.297803
2000,1.297805
2001,1.297806
2002,1.297808
2003,1.297809
2004,1.297811
2005,1.297813
2006,1.297814
2007,1.297816
2008,1.297817
2009,1.297819
2010,1.297821
2011,1.297822
2012,1.297824
2013,1.297825
2014,1.297827
2015,1.297828
2016,1.29783
2017,1.297831
2018,1.297833
2019,1.297834
2020,1.297836
2021,1.297837
2022,1.297839
2023,1.29784
2024,1.297842
2025,1.297843
2026,1.297845
2027,1.297846
2028,1.297848
2029,1.297849
2030,1.297851
2031,1.297852
2032,1.297854
2033,1.297855
2034,1.297857
2035,1.297858
2036,1.297859
2037,1.297861
2038,1.297862
2039,1.297864
2040,1.297865
2041,1.297866
2042,1.297868
2043,1.297869
2044,1.297871
2045,1.297872
2046,1.297873
2047,1.297875
2048,1.297876
2049,1.297877
2050,1.297879
2051,1.29788
2052,1.297881
2053,1.297883
2054,1.297884
2055,1.297885
2056,1.297887
2057,1.297888
2058,1.297889
2059,1.297891
2060,1.297892
2061,1.297893
2062,1.297895
2063,1.297896
2064,1.297897
2065,1.297898
2066,1.2979
2067,1.297901
2068,1.297902
2069,1.297903
2070,1.297905
2071,1.297906
2072,1.297907
2073,1.297908
2074,1.29791
2075,1.297911
2076,1.297912
2077,1.297913
2078,1.297914
2079,1.297916
2080,1.297917
2081,1.297918
2082,1.297919
2083,1.29792
2084,1.297922
2085,1.297923
2086,1.297924
2087,1.297925
2088,1.297926
2089,1.297927
2090,1.297929
2091,1.29793
2092,1.297931
2093,1.297932
2094,1.297933
2095,1.297934
2096,1.297935
2097,1.297937
2098,1.297938
2099,1.297939
2100,1.29794
2101,1.297941
2102,1.297942
2103,1.297943
2104,1.297944
2105,1.297945
2106,1.297946
2107,1.297948
2108,1.297949
2109,1.29795
2110,1.297951
2111,1.297952
2112,1.297953
2113,1.297954
2114,1.297955
2115,1.297956
2116,1.297957
2117,1.297958
2118,1.297959
2119,1.29796
2120,1.297961
2121,1.297962
2122,1.297963
2123,1.297964
2124,1.297965
2125,1.297966
2126,1.297967
2127,1.297968
2128,1.297969
2129,1.29797
2130,1.297971
2131,1.297972
2132,1.297973
2133,1.297974
2134,1.297975
2135,1.297976
2136,1.297977
2137,1.297978
2138,1.297979
2139,1.29798
2140,1.297981
2141,1.297982
2142,1.297983
2143,1.297984
2144,1.297985
2145,1.297986
2146,1.297987
2147,1.297988
2148,1.297988
2149,1.297989
2150,1.29799
2151,1.297991
2152,1.297992
2153,1.297993
2154,1.297994
2155,1.297995
2156,1.297996
2157,1.297997
2158,1.297997
2159,1.297998
2160,1.297999
2161,1.298
2162,1.298001
2163,1.298002
2164,1.298003
2165,1.298004
2166,1.298004
2167,1.298005
2168,1.298006
2169,1.298007
2170,1.298008
2171,1.298009
2172,1.29801
2173,1.29801
2174,1.298011
2175,1.298012
2176,1.298013
2177,1.298014
2178,1.298015
2179,1.298015
2180,1.298016
2181,1.298017
2182,1.298018
2183,1.298019
2184,1.298019
2185,1.29802
2186,1.298021
2187,1.298022
2188,1.298023
2189,1.298023
2190,1.298024
2191,1.298025
2192,1.298026
2193,1.298026
2194,1.298027
2195,1.298028
2196,1.298029
2197,1.29803
2198,1.29803
2199,1.298031
2200,1.298032
2201,1.298033
2202,1.298033
2203,1.298034
2204,1.298035
2205,1.298036
2206,1.298036
2207,1.298037
2208,1.298038
2209,1.298039
2210,1.298039
2211,1.29804
2212,1.298041
2213,1.298041
2214,1.298042
2215,1.298043
2216,1.298044
2217,1.298044
2218,1.298045
2219,1.298046
2220,1.298046
2221,1.298047
2222,1.298048
2223,1.298048
2224,1.298049
2225,1.29805
2226,1.29805
2227,1.298051
2228,1.298052
2229,1.298053
2230,1.298053
2231,1.298054
2232,1.298055
2233,1.298055
2234,1.298056
2235,1.298057
2236,1.298057
2237,1.298058
2238,1.298058
2239,1.298059
2240,1.29806
2241,1.29806
2242,1.298061
2243,1.298062
2244,1.298062
2245,1.298063
2246,1.298064
2247,1.298064
2248,1.298065
2249,1.298065
2250,1.298066
2251,1.298067
2252,1.298067
2253,1.298068
2254,1.298069
2255,1.298069
2256,1.29807
2257,1.29807
2258,1.298071
2259,1.298072
2260,1.298072
2261,1.298073
2262,1.298073
2263,1.298074
2264,1.298075
2265,1.298075
2266,1.298076
2267,1.298076
2268,1.298077
2269,1.298077
2270,1.298078
2271,1.298079
2272,1.298079
2273,1.29808
2274,1.29808
2275,1.298081
2276,1.298081
2277,1.298082
2278,1.298083
2279,1.298083
2280,1.298084
2281,1.298084
2282,1.298085
2283,1.298085
2284,1.298086
2285,1.298086
2286,1.298087
2287,1.298088
2288,1.298088
2289,1.298089
2290,1.298089
2291,1.29809
2292,1.29809
2293,1.298091
2294,1.298091
2295,1.298092
2296,1.298092
2297,1.298093
2298,1.298093
2299,1.298094
2300,1.298094
2301,1.298095
2302,1.298095
2303,1.298096
2304,1.298096
2305,1.298097
2306,1.298097
2307,1.298098
2308,1.298098
2309,1.298099
2310,1.298099
2311,1.2981
2312,1.2981
2313,1.298101
2314,1.298101
2315,1.298102
2316,1.298102
2317,1.298103
2318,1.298103
2319,1.298104
2320,1.298104
2321,1.298105
2322,1.298105
2323,1.298106
2324,1.298106
2325,1.298107
2326,1.298107
2327,1.298107
2328,1.298108
2329,1.298108
2330,1.298109
2331,1.298109
2332,1.29811
2333,1.29811
2334,1.298111
2335,1.298111
2336,1.298112
2337,1.298112
2338,1.298112
2339,1.298113
2340,1.298113
2341,1.298114
2342,1.298114
2343,1.298115
2344,1.298115
2345,1.298116
2346,1.298116
2347,1.298116
2348,1.298117
2349,1.298117
2350,1.298118
2351,1.298118
2352,1.298118
2353,1.298119
2354,1.298119
2355,1.29812
2356,1.29812
2357,1.298121
2358,1.298121
2359,1.298121
2360,1.298122
2361,1.298122
2362,1.298123
2363,1.298123
2364,1.298123
2365,1.298124
2366,1.298124
2367,1.298125
2368,1.298125
2369,1.298125
2370,1.298126
2371,1.298126
2372,1.298127
2373,1.298127
2374,1.298127
2375,1.298128
2376,1.298128
2377,1.298128
2378,1.298129
2379,1.298129
2380,1.29813
2381,1.29813
2382,1.29813
2383,1.298131
2384,1.298131
2385,1.298131
2386,1.298132
2387,1.298132
2388,1.298133
2389,1.298133
2390,1.298133
2391,1.298134
2392,1.298134
2393,1.298134
2394,1.298135
2395,1.298135
2396,1.298135
2397,1.298136
2398,1.298136
2399,1.298137
2400,1.298137
2401,1.298137
2402,1.298138
2403,1.298138
2404,1.298138
2405,1.298139
2406,1.298139
2407,1.298139
2408,1.29814
2409,1.29814
2410,1.29814
2411,1.298141
2412,1.298141
2413,1.298141
2414,1.298142
2415,1.298142
2416,1.298142
2417,1.298143
2418,1.298143
2419,1.298143
2420,1.298144
2421,1.298144
2422,1.298144
2423,1.298145
2424,1.298145
2425,1.298145
2426,1.298145
2427,1.298146
2428,1.298146
2429,1.298146
2430,1.298147
2431,1.298147
2432,1.298147
2433,1.298148
2434,1.298148
2435,1.298148
2436,1.298149
2437,1.298149
2438,1.298149
2439,1.298149
2440,1.29815
2441,1.29815
2442,1.29815
2443,1.298151
2444,1.298151
2445,1.298151
2446,1.298152
2447,1.298152
2448,1.298152
2449,1.298152
2450,1.298153
2451,1.298153
2452,1.298153
2453,1.298154
2454,1.298154
2455,1.298154
2456,1.298154
2457,1.298155
2458,1.298155
2459,1.298155
2460,1.298156
2461,1.298156
2462,1.298156
2463,1.298156
2464,1.298157
2465,1.298157
2466,1.298157
2467,1.298157
2468,1.298158
2469,1.298158
2470,1.298158
2471,1.298158
2472,1.298159
2473,1.298159
2474,1.298159
2475,1.29816
2476,1.29816
2477,1.29816
2478,1.29816
2479,1.298161
2480,1.298161
2481,1.298161
2482,1.298161
2483,1.298162
2484,1.298162
2485,1.298162
2486,1.298162
2487,1.298163
2488,1.298163
2489,1.298163
2490,1.298163
2491,1.298164
2492,1.298164
2493,1.298164
2494,1.298164
2495,1.298165
2496,1.298165
2497,1.298165
2498,1.298165
2499,1.298166
2500,1.298166
2501,1.298166
2502,1.298166
2503,1.298166
2504,1.298167
2505,1.298167
2506,1.298167
2507,1.298167
2508,1.298168
2509,1.298168
2510,1.298168
2511,1.298168
2512,1.298169
2513,1.298169
2514,1.298169
2515,1.298169
2516,1.298169
2517,1.29817
2518,1.29817
2519,1.29817
2520,1.29817
2521,1.298171
2522,1.298171
2523,1.298171
2524,1.298171
2525,1.298171
2526,1.298172
2527,1.298172
2528,1.298172
2529,1.298172
2530,1.298172
2531,1.298173
2532,1.298173
2533,1.298173
2534,1.298173
2535,1.298174
2536,1.298174
2537,1.298174
2538,1.298174
2539,1.298174
2540,1.298175
2541,1.298175
2542,1.298175
2543,1.298175
2544,1.298175
2545,1.298176
2546,1.298176
2547,1.298176
2548,1.298176
2549,1.298176
2550,1.298177
2551,1.298177
2552,1.298177
2553,1.298177
2554,1.298177
2555,1.298177
2556,1.298178
2557,1.298178
2558,1.298178
2559,1.298178
2560,1.298178
2561,1.298179
2562,1.298179
2563,1.298179
2564,1.298179
2565,1.298179
2566,1.29818
2567,1.29818
2568,1.29818
2569,1.29818
2570,1.29818
2571,1.29818
2572,1.298181
2573,1.298181
2574,1.298181
2575,1.298181
2576,1.298181
2577,1.298182
2578,1.298182
2579,1.298182
2580,1.298182
2581,1.298182
2582,1.298182
2583,1.298183
2584,1.298183
2585,1.298183
2586,1.298183
2587,1.298183
2588,1.298183
2589,1.298184
2590,1.298184
2591,1.298184
2592,1.298184
2593,1.298184
2594,1.298184
2595,1.298185
2596,1.298185
2597,1.298185
2598,1.298185
2599,1.298185
2600,1.298185
2601,1.298186
2602,1.298186
2603,1.298186
2604,1.298186
2605,1.298186
2606,1.298186
2607,1.298187
2608,1.298187
2609,1.298187
2610,1.298187
2611,1.298187
2612,1.298187
2613,1.298187
2614,1.298188
2615,1.298188
2616,1.298188
2617,1.298188
2618,1.298188
2619,1.298188
2620,1.298188
2621,1.298189
2622,1.298189
2623,1.298189
2624,1.298189
2625,1.298189
2626,1.298189
2627,1.29819
2628,1.29819
2629,1.29819
2630,1.29819
2631,1.29819
2632,1.29819
2633,1.29819
2634,1.298191
2635,1.298191
2636,1.298191
2637,1.298191
2638,1.298191
2639,1.298191
2640,1.298191
2641,1.298191
2642,1.298192
2643,1.298192
2644,1.298192
2645,1.298192
2646,1.298192
2647,1.298192
2648,1.298192
2649,1.298193
2650,1.298193
2651,1.298193
2652,1.298193
2653,1.298193
2654,1.298193
2655,1.298193
2656,1.298194
2657,1.298194
2658,1.298194
2659,1.298194
2660,1.298194
2661,1.298194
2662,1.298194
2663,1.298194
2664,1.298195
2665,1.298195
2666,1.298195
2667,1.298195
2668,1.298195
2669,1.298195
2670,1.298195
2671,1.298195
2672,1.298196
2673,1.298196
2674,1.298196
2675,1.298196
2676,1.298196
2677,1.298196
2678,1.298196
2679,1.298196
2680,1.298196
2681,1.298197
2682,1.298197
2683,1.298197
2684,1.298197
2685,1.298197
2686,1.298197
2687,1.298197
2688,1.298197
2689,1.298198
2690,1.298198
2691,1.298198
2692,1.298198
2693,1.298198
2694,1.298198
2695,1.298198
2696,1.298198
2697,1.298198
2698,1.298199
2699,1.298199
2700,1.298199
2701,1.298199
2702,1.298199
2703,1.298199
2704,1.298199
2705,1.298199
2706,1.298199
2707,1.2982
2708,1.2982
2709,1.2982
2710,1.2982
2711,1.2982
2712,1.2982
2713,1.2982
2714,1.2982
2715,1.2982
2716,1.2982
2717,1.298201
2718,1.298201
2719,1.298201
2720,1.298201
2721,1.298201
2722,1.298201
2723,1.298201
2724,1.298201
2725,1.298201
2726,1.298201
2727,1.298202
2728,1.298202
2729,1.298202
2730,1.298202
2731,1.298202
2732,1.298202
2733,1.298202
2734,1.298202
2735,1.298202
2736,1.298202
2737,1.298203
2738,1.298203
2739,1.298203
2740,1.298203
2741,1.298203
2742,1.298203
2743,1.298203
2744,1.298203
2745,1.298203
2746,1.298203
2747,1.298203
2748,1.298204
2749,1.298204
2750,1.298204
2751,1.298204
2752,1.298204
2753,1.298204
2754,1.298204
2755,1.298204
2756,1.298204
2757,1.298204
2758,1.298204
2759,1.298205
2760,1.298205
2761,1.298205
2762,1.298205
2763,1.298205
2764,1.298205
2765,1.298205
2766,1.298205
2767,1.298205
2768,1.298205
2769,1.298205
2770,1.298205
2771,1.298206
2772,1.298206
2773,1.298206
2774,1.298206
2775,1.298206
2776,1.298206
2777,1.298206
2778,1.298206
2779,1.298206
2780,1.298206
2781,1.298206
2782,1.298206
2783,1.298207
2784,1.298207
2785,1.298207
2786,1.298207
2787,1.298207
2788,1.298207
2789,1.298207
2790,1.298207
2791,1.298207
2792,1.298207
2793,1.298207
2794,1.298207
2795,1.298207
2796,1.298208
2797,1.298208
2798,1.298208
2799,1.298208
2800,1.298208
2801,1.298208
2802,1.298208
2803,1.298208
2804,1.298208
2805,1.298208
2806,1.298208
2807,1.298208
2808,1.298208
2809,1.298208
2810,1.298209
2811,1.298209
2812,1.298209
2813,1.298209
2814,1.298209
2815,1.298209
2816,1.298209
2817,1.298209
2818,1.298209
2819,1.298209
2820,1.298209
2821,1.298209
2822,1.298209
2823,1.298209
2824,1.29821
2825,1.29821
2826,1.29821
2827,1.29821
2828,1.29821
2829,1.29821
2830,1.29821
2831,1.29821
2832,1.29821
2833,1.29821
2834,1.29821
2835,1.29821
2836,1.29821
2837,1.29821
2838,1.29821
2839,1.298211
2840,1.298211
2841,1.298211
2842,1.298211
2843,1.298211
2844,1.298211
2845,1.298211
2846,1.298211
2847,1.298211
2848,1.298211
2849,1.298211
2850,1.298211
2851,1.298211
2852,1.298211
2853,1.298211
2854,1.298211
2855,1.298212
2856,1.298212
2857,1.298212
2858,1.298212
2859,1.298212
2860,1.298212
2861,1.298212
2862,1.298212
2863,1.298212
2864,1.298212
2865,1.298212
2866,1.298212
2867,1.298212
2868,1.298212
2869,1.298212
2870,1.298212
2871,1.298212
2872,1.298213
2873,1.298213
2874,1.298213
2875,1.298213
2876,1.298213
2877,1.298213
2878,1.298213
2879,1.298213
2880,1.298213
2881,1.298213
2882,1.298213
2883,1.298213
2884,1.298213
2885,1.298213
2886,1.298213
2887,1.298213
2888,1.298213
2889,1.298213
2890,1.298213
2891,1.298214
2892,1.298214
2893,1.298214
2894,1.298214
2895,1.298214
2896,1.298214
2897,1.298214
2898,1.298214
2899,1.298214
2900,1.298214
2901,1.298214
2902,1.298214
2903,1.298214
2904,1.298214
2905,1.298214
2906,1.298214
2907,1.298214
2908,1.298214
2909,1.298214
2910,1.298214
2911,1.298215
2912,1.298215
2913,1.298215
2914,1.298215
2915,1.298215
2916,1.298215
2917,1.298215
2918,1.298215
2919,1.298215
2920,1.298215
2921,1.298215
2922,1.298215
2923,1.298215
2924,1.298215
2925,1.298215
2926,1.298215
2927,1.298215
2928,1.298215
2929,1.298215
2930,1.298215
2931,1.298215
2932,1.298216
2933,1.298216
2934,1.298216
2935,1.298216
2936,1.298216
2937,1.298216
2938,1.298216
2939,1.298216
2940,1.298216
2941,1.298216
2942,1.298216
2943,1.298216
2944,1.298216
2945,1.298216
2946,1.298216
2947,1.298216
2948,1.298216
2949,1.298216
2950,1.298216
2951,1.298216
2952,1.298216
2953,1.298216
2954,1.298216
2955,1.298217
2956,1.298217
2957,1.298217
2958,1.298217
2959,1.298217
2960,1.298217
2961,1.298217
2962,1.298217
2963,1.298217
2964,1.298217
2965,1.298217
2966,1.298217
2967,1.298217
2968,1.298217
2969,1.298217
2970,1.298217
2971,1.298217
2972,1.298217
2973,1.298217
2974,1.298217
2975,1.298217
2976,1.298217
2977,1.298217
2978,1.298217
2979,1.298217
2980,1.298217
2981,1.298218
2982,1.298218
2983,1.298218
2984,1.298218
2985,1.298218
2986,1.298218
2987,1.298218
2988,1.298218
2989,1.298218
2990,1.298218
2991,1.298218
2992,1.298218
2993,1.298218
2994,1.298218
2995,1.298218
2996,1.298218
2997,1.298218
2998,1.298218
2999,1.298218
3000,1.298218
3001,1.298218
3002,1.298218
3003,1.298218
3004,1.298218
3005,1.298218
3006,1.298218
3007,1.298218
3008,1.298218
3009,1.298219
3010,1.298219
3011,1.298219
3012,1.298219
3013,1.298219
3014,1.298219
3015,1.298219
3016,1.298219
3017,1.298219
3018,1.298219
3019,1.298219
3020,1.298219
3021,1.298219
3022,1.298219
3023,1.298219
3024,1.298219
3025,1.298219
3026,1.298219
3027,1.298219
3028,1.298219
3029,1.298219
3030,1.298219
3031,1.298219
3032,1.298219
3033,1.298219
3034,1.298219
3035,1.298219
3036,1.298219
3037,1.298219
3038,1.298219
3039,1.298219
3040,1.298219
3041,1.29822
3042,1.29822
3043,1.29822
3044,1.29822
3045,1.29822
3046,1.29822
3047,1.29822
3048,1.29822
3049,1.29822
3050,1.29822
3051,1.29822
3052,1.29822
3053,1.29822
3054,1.29822
3055,1.29822
3056,1.29822
3057,1.29822
3058,1.29822
3059,1.29822
3060,1.29822
3061,1.29822
3062,1.29822
3063,1.29822
3064,1.29822
3065,1.29822
3066,1.29822
3067,1.29822
3068,1.29822
3069,1.29822
3070,1.29822
3071,1.29822
3072,1.29822
3073,1.29822
3074,1.29822
3075,1.29822
3076,1.29822
3077,1.29822
3078,1.298221
3079,1.298221
3080,1.298221
3081,1.298221
3082,1.298221
3083,1.298221
3084,1.298221
3085,1.298221
3086,1.298221
3087,1.298221
3088,1.298221
3089,1.298221
3090,1.298221
3091,1.298221
3092,1.298221
3093,1.298221
3094,1.298221
3095,1.298221
3096,1.298221
3097,1.298221
3098,1.298221
3099,1.298221
3100,1.298221
3101,1.298221
3102,1.298221
3103,1.298221
3104,1.298221
3105,1.298221
3106,1.298221
3107,1.298221
3108,1.298221
3109,1.298221
3110,1.298221
3111,1.298221
3112,1.298221
3113,1.298221
3114,1.298221
3115,1.298221
3116,1.298221
3117,1.298221
3118,1.298221
3119,1.298221
3120,1.298222
3121,1.298222
3122,1.298222
3123,1.298222
3124,1.298222
3125,1.298222
3126,1.298222
3127,1.298222
3128,1.298222
3129,1.298222
3130,1.298222
3131,1.298222
3132,1.298222
3133,1.298222
3134,1.298222
3135,1.298222
3136,1.298222
3137,1.298222
3138,1.298222
3139,1.298222
3140,1.298222
3141,1.298222
3142,1.298222
3143,1.298222
3144,1.298222
3145,1.298222
3146,1.298222
3147,1.298222
3148,1.298222
3149,1.298222
3150,1.298222
3151,1.298222
3152,1.298222
3153,1.298222
3154,1.298222
3155,1.298222
3156,1.298222
3157,1.298222
3158,1.298222
3159,1.298222
3160,1.298222
3161,1.298222
3162,1.298222
3163,1.298222
3164,1.298222
3165,1.298222
3166,1.298222
3167,1.298222
3168,1.298222
3169,1.298222
3170,1.298222
3171,1.298223
3172,1.298223
3173,1.298223
3174,1.298223
3175,1.298223
3176,1.298223
3177,1.298223
3178,1.298223
3179,1.298223
3180,1.298223
3181,1.298223
3182,1.298223
3183,1.298223
3184,1.298223
3185,1.298223
3186,1.298223
3187,1.298223
3188,1.298223
3189,1.298223
3190,1.298223
3191,1.298223
3192,1.298223
3193,1.298223
3194,1.298223
3195,1.298223
3196,1.298223
3197,1.298223
3198,1.298223
3199,1.298223
3200,1.298223
3201,1.298223
3202,1.298223
3203,1.298223
3204,1.298223
3205,1.298223
3206,1.298223
3207,1.298223
3208,1.298223
3209,1.298223
3210,1.298223
3211,1.298223
3212,1.298223
3213,1.298223
3214,1.298223
3215,1.298223
3216,1.298223
3217,1.298223
3218,1.298223
3219,1.298223
3220,1.298223
3221,1.298223
3222,1.298223
3223,1.298223
3224,1.298223
3225,1.298223
3226,1.298223
3227,1.298223
3228,1.298223
3229,1.298223
3230,1.298223
3231,1.298223
3232,1.298223
3233,1.298223
3234,1.298223
3235,1.298224
3236,1.298224
3237,1.298224
3238,1.298224
3239,1.298224
3240,1.298224
3241,1.298224
3242,1.298224
3243,1.298224
3244,1.298224
3245,1.298224
3246,1.298224
3247,1.298224
3248,1.298224
3249,1.298224
3250,1.298224
3251,1.298224
3252,1.298224
3253,1.298224
3254,1.298224
3255,1.298224
3256,1.298224
3257,1.298224
3258,1.298224
3259,1.298224
3260,1.298224
3261,1.298224
3262,1.298224
3263,1.298224
3264,1.298224
3265,1.298224
3266,1.298224
3267,1.298224
3268,1.298224
3269,1.298224
3270,1.298224
3271,1.298224
3272,1.298224
3273,1.298224
3274,1.298224
3275,1.298224
3276,1.298224
3277,1.298224
3278,1.298224
3279,1.298224
3280,1.298224
3281,1.298224
3282,1.298224
3283,1.298224
3284,1.298224
3285,1.298224
3286,1.298224
3287,1.298224
3288,1.298224
3289,1.298224
3290,1.298224
3291,1.298224
3292,1.298224
3293,1.298224
3294,1.298224
3295,1.298224
3296,1.298224
3297,1.298224
3298,1.298224
3299,1.298224
3300,1.298224
3301,1.298224
3302,1.298224
3303,1.298224
3304,1.298224
3305,1.298224
3306,1.298224
3307,1.298224
3308,1.298224
3309,1.298224
3310,1.298224
3311,1.298224
3312,1.298224
3313,1.298224
3314,1.298224
3315,1.298224
3316,1.298224
3317,1.298224
3318,1.298224
3319,1.298225
3320,1.298225
3321,1.298225
3322,1.298225
3323,1.298225
3324,1.298225
3325,1.298225
3326,1.298225
3327,1.298225
3328,1.298225
3329,1.298225
3330,1.298225
3331,1.298225
3332,1.298225
3333,1.298225
3334,1.298225
3335,1.298225
3336,1.298225
3337,1.298225
3338,1.298225
3339,1.298225
3340,1.298225
3341,1.298225
3342,1.298225
3343,1.298225
3344,1.298225
3345,1.298225
3346,1.298225
3347,1.298225
3348,1.298225
3349,1.298225
3350,1.298225
3351,1.298225
3352,1.298225
3353,1.298225
3354,1.298225
3355,1.298225
3356,1.298225
3357,1.298225
3358,1.298225
3359,1.298225
3360,1.298225
3361,1.298225
3362,1.298225
3363,1.298225
3364,1.298225
3365,1.298225
3366,1.298225
3367,1.298225
3368,1.298225
3369,1.298225
3370,1.298225
3371,1.298225
3372,1.298225
3373,1.298225
3374,1.298225
3375,1.298225
3376,1.298225
3377,1.298225
3378,1.298225
3379,1.298225
3380,1.298225
3381,1.298225
3382,1.298225
3383,1.298225
3384,1.298225
3385,1.298225
3386,1.298225
3387,1.298225
3388,1.298225
3389,1.298225
3390,1.298225
3391,1.298225
3392,1.298225
3393,1.298225
3394,1.298225
3395,1.298225
3396,1.298225
3397,1.298225
3398,1.298225
3399,1.298225
3400,1.298225
3401,1.298225
3402,1.298225
3403,1.298225
3404,1.298225
3405,1.298225
3406,1.298225
3407,1.298225
3408,1.298225
3409,1.298225
3410,1.298225
3411,1.298225
3412,1.298225
3413,1.298225
3414,1.298225
3415,1.298225
3416,1.298225
3417,1.298225
3418,1.298225
3419,1.298225
3420,1.298225
3421,1.298225
3422,1.298225
3423,1.298225
3424,1.298225
3425,1.298225
3426,1.298225
3427,1.298225
3428,1.298225
3429,1.298225
3430,1.298225
3431,1.298225
3432,1.298225
3433,1.298225
3434,1.298225
3435,1.298225
3436,1.298225
3437,1.298225
3438,1.298225
3439,1.298225
3440,1.298225
3441,1.298225
3442,1.298225
3443,1.298225
3444,1.298226
3445,1.298226
3446,1.298226
3447,1.298226
3448,1.298226
3449,1.298226
3450,1.298226
3451,1.298226
3452,1.298226
3453,1.298226
3454,1.298226
3455,1.298226
3456,1.298226
3457,1.298226
3458,1.298226
3459,1.298226
3460,1.298226
3461,1.298226
3462,1.298226
3463,1.298226
3464,1.298226
3465,1.298226
3466,1.298226
3467,1.298226
3468,1.298226
3469,1.298226
3470,1.298226
3471,1.298226
3472,1.298226
3473,1.298226
3474,1.298226
3475,1.298226
3476,1.298226
3477,1.298226
3478,1.298226
3479,1.298226
3480,1.298226
3481,1.298226
3482,1.298226
3483,1.298226
3484,1.298226
3485,1.298226
3486,1.298226
3487,1.298226
3488,1.298226
3489,1.298226
3490,1.298226
3491,1.298226
3492,1.298226
3493,1.298226
3494,1.298226
3495,1.298226
3496,1.298226
3497,1.298226
3498,1.298226
3499,1.298226
3500,1.298226
3501,1.298226
3502,1.298226
3503,1.298226
3504,1.298226
3505,1.298226
3506,1.298226
3507,1.298226
3508,1.298226
3509,1.298226
3510,1.298226
3511,1.298226
3512,1.298226
3513,1.298226
3514,1.298226
3515,1.298226
3516,1.298226
3517,1.298226
3518,1.298226
3519,1.298226
3520,1.298226
3521,1.298226
3522,1.298226
3523,1.298226
3524,1.298226
3525,1.298226
3526,1.298226
3527,1.298226
3528,1.298226
3529,1.298226
3530,1.298226
3531,1.298226
3532,1.298226
3533,1.298226
3534,1.298226
3535,1.298226
3536,1.298226
3537,1.298226
3538,1.298226
3539,1.298226
3540,1.298226
3541,1.298226
3542,1.298226
3543,1.298226
3544,1.298226
3545,1.298226
3546,1.298226
3547,1.298226
3548,1.298226
3549,1.298226
3550,1.298226
3551,1.298226
3552,1.298226
3553,1.298226
3554,1.298226
3555,1.298226
3556,1.298226
3557,1.298226
3558,1.298226
3559,1.298226
3560,1.298226
3561,1.298226
3562,1.298226
3563,1.298226
3564,1.298226
3565,1.298226
3566,1.298226
3567,1.298226
3568,1.298226
3569,1.298226
3570,1.298226
3571,1.298226
3572,1.298226
3573,1.298226
3574,1.298226
3575,1.298226
3576,1.298226
3577,1.298226
3578,1.298226
3579,1.298226
3580,1.298226
3581,1.298226
3582,1.298226
3583,1.298226
3584,1.298226
3585,1.298226
3586,1.298226
3587,1.298226
3588,1.298226
3589,1.298226
3590,1.298226
3591,1.298226
3592,1.298226
3593,1.298226
3594,1.298226
3595,1.298226
3596,1.298226
3597,1.298226
3598,1.298226
3599,1.298226
3600,1.298226
3601,1.298226
3602,1.298226
3603,1.298226
3604,1.298226
3605,1.298226
3606,1.298226
3607,1.298226
3608,1.298226
3609,1.298226
3610,1.298226
3611,1.298226
3612,1.298226
3613,1.298226
3614,1.298226
3615,1.298226
3616,1.298226
3617,1.298226
3618,1.298226
3619,1.298226
3620,1.298226
3621,1.298226
3622,1.298226
3623,1.298226
3624,1.298226
3625,1.298226
3626,1.298226
3627,1.298226
3628,1.298226
3629,1.298226
3630,1.298226
3631,1.298226
3632,1.298226
3633,1.298226
3634,1.298226
3635,1.298226
3636,1.298226
3637,1.298226
3638,1.298226
3639,1.298226
3640,1.298226
3641,1.298226
3642,1.298226
3643,1.298226
3644,1.298226
3645,1.298226
3646,1.298226
3647,1.298226
3648,1.298226
3649,1.298226
3650,1.298226
3651,1.298226
3652,1.298226
3653,1.298226
3654,1.298226
3655,1.298226
3656,1.298226
3657,1.298226
3658,1.298226
3659,1.298226
3660,1.298226
3661,1.298226
3662,1.298226
3663,1.298226
3664,1.298226
3665,1.298226
3666,1.298226
3667,1.298226
3668,1.298226
3669,1.298226
3670,1.298226
3671,1.298226
3672,1.298226
3673,1.298226
3674,1.298226
3675,1.298226
3676,1.298226
3677,1.298226
3678,1.298226
3679,1.298226
3680,1.298226
3681,1.298226
3682,1.298226
3683,1.298226
3684,1.298226
3685,1.298226
3686,1.298226
3687,1.298226
3688,1.298226
3689,1.298226
3690,1.298226
3691,1.298226
3692,1.298226
3693,1.298226
3694,1.298226
3695,1.298226
3696,1.298227
3697,1.298227
3698,1.298227
3699,1.298227
3700,1.298227
3701,1.298227
3702,1.298227
3703,1.298227
3704,1.298227
3705,1.298227
3706,1.298227
3707,1.298227
3708,1.298227
3709,1.298227
3710,1.298227
3711,1.298227
3712,1.298227
3713,1.298227
3714,1.298227
3715,1.298227
3716,1.298227
3717,1.298227
3718,1.298227
3719,1.298227
3720,1.298227
3721,1.298227
3722,1.298227
3723,1.298227
3724,1.298227
3725,1.298227
3726,1.298227
3727,1.298227
3728,1.298227
3729,1.298227
3730,1.298227
3731,1.298227
3732,1.298227
3733,1.298227
3734,1.298227
3735,1.298227
3736,1.298227
3737,1.298227
3738,1.298227
3739,1.298227
3740,1.298227
3741,1.298227
3742,1.298227
3743,1.298227
3744,1.298227
3745,1.298227
3746,1.298227
3747,1.298227
3748,1.298227
3749,1.298227
3750,1.298227
3751,1.298227
3752,1.298227
3753,1.298227
3754,1.298227
3755,1.298227
3756,1.298227
3757,1.298227
3758,1.298227
3759,1.298227
3760,1.298227
3761,1.298227
3762,1.298227
3763,1.298227
3764,1.298227
3765,1.298227
3766,1.298227
3767,1.298227
3768,1.298227
3769,1.298227
3770,1.298227
3771,1.298227
3772,1.298227
3773,1.298227
3774,1.298227
3775,1.298227
3776,1.298227
3777,1.298227
3778,1.298227
3779,1.298227
3780,1.298227
3781,1.298227
3782,1.298227
3783,1.298227
3784,1.298227
3785,1.298227
3786,1.298227
3787,1.298227
3788,1.298227
3789,1.298227
3790,1.298227
3791,1.298227
3792,1.298227
3793,1.298227
3794,1.298227
3795,1.298227
3796,1.298227
3797,1.298227
3798,1.298227
3799,1.298227
3800,1.298227
3801,1.298227
3802,1.298227
3803,1.298227
3804,1.298227
3805,1.298227
3806,1.298227
3807,1.298227
3808,1.298227
3809,1.298227
3810,1.298227
3811,1.298227
3812,1.298227
3813,1.298227
3814,1.298227
3815,1.298227
3816,1.298227
3817,1.298227
3818,1.298227
3819,1.298227
3820,1.298227
3821,1.298227
3822,1.298227
3823,1.298227
3824,1.298227
3825,1.298227
3826,1.298227
3827,1.298227
3828,1.298227
3829,1.298227
3830,1.298227
3831,1.298227
3832,1.298227
3833,1.298227
3834,1.298227
3835,1.298227
3836,1.298227
3837,1.298227
3838,1.298227
3839,1.298227
3840,1.298227
3841,1.298227
3842,1.298227
3843,1.298227
3844,1.298227
3845,1.298227
3846,1.298227
3847,1.298227
3848,1.298227
3849,1.298227
3850,1.298227
3851,1.298227
3852,1.298227
3853,1.298227
3854,1.298227
3855,1.298227
3856,1.298227
3857,1.298227
3858,1.298227
3859,1.298227
3860,1.298227
3861,1.298227
3862,1.298227
3863,1.298227
3864,1.298227
3865,1.298227
3866,1.298227
3867,1.298227
3868,1.298227
3869,1.298227
3870,1.298227
3871,1.298227
3872,1.298227
3873,1.298227
3874,1.298227
3875,1.298227
3876,1.298227
3877,1.298227
3878,1.298227
3879,1.298227
3880,1.298227
3881,1.298227
3882,1.298227
3883,1.298227
3884,1.298227
3885,1.298227
3886,1.298227
3887,1.298227
3888,1.298227
3889,1.298227
3890,1.298227
3891,1.298227
3892,1.298227
3893,1.298227
3894,1.298227
3895,1.298227
3896,1.298227
3897,1.298227
3898,1.298227
3899,1.298227
3900,1.298227
3901,1.298227
3902,1.298227
3903,1.298227
3904,1.298227
3905,1.298227
3906,1.298227
3907,1.298227
3908,1.298227
3909,1.298227
3910,1.298227
3911,1.298227
3912,1.298227
3913,1.298227
3914,1.298227
3915,1.298227
3916,1.298227
3917,1.298227
3918,1.298227
3919,1.298227
3920,1.298227
3921,1.298227
3922,1.298227
3923,1.298227
3924,1.298227
3925,1.298227
3926,1.298227
3927,1.298227
3928,1.298227
3929,1.298227
3930,1.298227
3931,1.298227
3932,1.298227
3933,1.298227
3934,1.298227
3935,1.298227
3936,1.298227
3937,1.298227
3938,1.298227
3939,1.298227
3940,1.298227
3941,1.298227
3942,1.298227
3943,1.298227
3944,1.298227
3945,1.298227
3946,1.298227
3947,1.298227
3948,1.298227
3949,1.298227
3950,1.298227
3951,1.298227
3952,1.298227
3953,1.298227
3954,1.298227
3955,1.298227
3956,1.298227
3957,1.298227
3958,1.298227
3959,1.298227
3960,1.298227
3961,1.298227
3962,1.298227
3963,1.298227
3964,1.298227
3965,1.298227
3966,1.298227
3967,1.298227
3968,1.298227
3969,1.298227
3970,1.298227
3971,1.298227
3972,1.298227
3973,1.298227
3974,1.298227
3975,1.298227
3976,1.298227
3977,1.298227
3978,1.298227
3979,1.298227
3980,1.298227
3981,1.298227
3982,1.298227
3983,1.298227
3984,1.298227
3985,1.298227
3986,1.298227
3987,1.298227
3988,1.298227
3989,1.298227
3990,1.298227
3991,1.298227
3992,1.298227
3993,1.298227
3994,1.298227
3995,1.298227
3996,1.298227
3997,1.298227
3998,1.298227
3999,1.298227
4000,1.298227
4001,1.298227
4002,1.298227
4003,1.298227
4004,1.298227
4005,1.298227
4006,1.298227
4007,1.298227
4008,1.298227
4009,1.298227
4010,1.298227
4011,1.298227
4012,1.298227
4013,1.298227
4014,1.298227
4015,1.298227
4016,1.298227
4017,1.298227
4018,1.298227
4019,1.298227
4020,1.298227
4021,1.298227
4022,1.298227
4023,1.298227
4024,1.298227
4025,1.298227
4026,1.298227
4027,1.298227
4028,1.298227
4029,1.298227
4030,1.298227
4031,1.298227
4032,1.298227
4033,1.298227
4034,1.298227
4035,1.298227
4036,1.298227
4037,1.298227
4038,1.298227
4039,1.298227
4040,1.298227
4041,1.298227
4042,1.298227
4043,1.298227
4044,1.298227
4045,1.298227
4046,1.298227
4047,1.298227
4048,1.298227
4049,1.298227
4050,1.298227
4051,1.298227
4052,1.298227
4053,1.298227
4054,1.298227
4055,1.298227
4056,1.298227
4057,1.298227
4058,1.298227
4059,1.298227
4060,1.298227
4061,1.298227
4062,1.298227
4063,1.298227
4064,1.298227
4065,1.298227
4066,1.298227
4067,1.298227
4068,1.298227
4069,1.298227
4070,1.298227
4071,1.298227
4072,1.298227
4073,1.298227
4074,1.298227
4075,1.298227
4076,1.298227
4077,1.298227
4078,1.298227
4079,1.298227
4080,1.298227
4081,1.298227
4082,1.298227
4083,1.298227
4084,1.298227
4085,1.298227
4086,1.298227
4087,1.298227
4088,1.298227
4089,1.298227
4090,1.298227
4091,1.298227
4092,1.298227
4093,1.298227
4094,1.298227
4095,1.298227
4096,1.298227
4097,1.298227
4098,1.298227
4099,1.298227
4100,1.298227
4101,1.298227
4102,1.298227
4103,1.298227
4104,1.298227
4105,1.298227
4106,1.298227
4107,1.298227
4108,1.298227
4109,1.298227
4110,1.298227
4111,1.298227
4112,1.298227
4113,1.298227
4114,1.298227
4115,1.298227
4116,1.298227
4117,1.298227
4118,1.298227
4119,1.298227
4120,1.298227
4121,1.298227
4122,1.298227
4123,1.298227
4124,1.298227
4125,1.298227
4126,1.298227
4127,1.298227
4128,1.298227
4129,1.298227
4130,1.298227
4131,1.298227
4132,1.298227
4133,1.298227
4134,1.298227
4135,1.298227
4136,1.298227
4137,1.298227
4138,1.298227
4139,1.298227
4140,1.298227
4141,1.298227
4142,1.298227
4143,1.298227
4144,1.298227
4145,1.298227
4146,1.298227
4147,1.298227
4148,1.298227
4149,1.298227
4150,1.298227
4151,1.298227
4152,1.298227
4153,1.298227
4154,1.298227
4155,1.298227
4156,1.298227
4157,1.298227
4158,1.298227
4159,1.298227
4160,1.298227
4161,1.298227
4162,1.298227
4163,1.298227
4164,1.298227
4165,1.298227
4166,1.298227
4167,1.298227
4168,1.298227
4169,1.298227
4170,1.298227
4171,1.298227
4172,1.298227
4173,1.298227
4174,1.298227
4175,1.298227
4176,1.298227
4177,1.298227
4178,1.298227
4179,1.298227
4180,1.298227
4181,1.298227
4182,1.298227
4183,1.298227
4184,1.298227
4185,1.298227
4186,1.298227
4187,1.298227
4188,1.298227
4189,1.298227
4190,1.298227
4191,1.298227
4192,1.298227
4193,1.298227
4194,1.298227
4195,1.298227
4196,1.298227
4197,1.298227
4198,1.298227
4199,1.298227
4200,1.298227
4201,1.298227
4202,1.298227
4203,1.298227
4204,1.298227
4205,1.298227
4206,1.298227
4207,1.298227
4208,1.298227
4209,1.298227
4210,1.298227
4211,1.298227
4212,1.298227
4213,1.298227
4214,1.298227
4215,1.298227
4216,1.298227
4217,1.298227
4218,1.298227
4219,1.298227
4220,1.298227
4221,1.298227
4222,1.298227
4223,1.298227
4224,1.298227
4225,1.298227
4226,1.298227
4227,1.298227
4228,1.298227
4229,1.298227
4230,1.298227
4231,1.298227
4232,1.298227
4233,1.298227
4234,1.298227
4235,1.298227
4236,1.298227
4237,1.298227
4238,1.298227
4239,1.298227
4240,1.298227
4241,1.298227
4242,1.298227
4243,1.298227
4244,1.298227
4245,1.298227
4246,1.298227
4247,1.298227
4248,1.298227
4249,1.298227
4250,1.298227
4251,1.298227
4252,1.298227
4253,1.298227
4254,1.298227
4255,1.298227
4256,1.298227
4257,1.298227
4258,1.298227
4259,1.298227
4260,1.298227
4261,1.298227
4262,1.298227
4263,1.298227
4264,1.298227
4265,1.298227
4266,1.298227
4267,1.298227
4268,1.298227
4269,1.298227
4270,1.298227
4271,1.298227
4272,1.298227
4273,1.298227
4274,1.298227
4275,1.298227
4276,1.298227
4277,1.298227
4278,1.298227
4279,1.298227
4280,1.298227
4281,1.298227
4282,1.298227
4283,1.298227
4284,1.298227
4285,1.298227
4286,1.298227
4287,1.298227
4288,1.298227
4289,1.298227
4290,1.298227
4291,1.298227
4292,1.298227
4293,1.298227
4294,1.298227
4295,1.298227
4296,1.298227
4297,1.298227
4298,1.298227
4299,1.298227
4300,1.298227
4301,1.298227
4302,1.298227
4303,1.298227
4304,1.298227
4305,1.298227
4306,1.298227
4307,1.298227
4308,1.298227
4309,1.298227
4310,1.298227
4311,1.298227
4312,1.298227
4313,1.298227
4314,1.298227
4315,1.298227
4316,1.298227
4317,1.298227
4318,1.298227
4319,1.298227
4320,1.298227
4321,1.298227
4322,1.298227
4323,1.298227
4324,1.298227
4325,1.298227
4326,1.298227
4327,1.298227
4328,1.298227
4329,1.298227
4330,1.298227
4331,1.298227
4332,1.298227
4333,1.298227
4334,1.298227
4335,1.298227
4336,1.298227
4337,1.298227
4338,1.298227
4339,1.298227
4340,1.298227
4341,1.298227
4342,1.298227
4343,1.298227
4344,1.298227
4345,1.298227
4346,1.298227
4347,1.298227
4348,1.298227
4349,1.298227
4350,1.298227
4351,1.298227
4352,1.298227
4353,1.298227
4354,1.298227
4355,1.298227
4356,1.298227
4357,1.298227
4358,1.298227
4359,1.298227
4360,1.298227
4361,1.298227
4362,1.298227
4363,1.298227
4364,1.298227
4365,1.298227
4366,1.298227
4367,1.298227
4368,1.298227
4369,1.298227
4370,1.298227
4371,1.298227
4372,1.298227
4373,1.298227
4374,1.298227
4375,1.298227
4376,1.298227
4377,1.298227
4378,1.298227
4379,1.298227
4380,1.298227
4381,1.298227
4382,1.298227
4383,1.298227
4384,1.298227
4385,1.298227
4386,1.298227
4387,1.298227
4388,1.298227
4389,1.298227
4390,1.298227
4391,1.298227
4392,1.298227
4393,1.298227
4394,1.298227
4395,1.298227
4396,1.298227
4397,1.298227
4398,1.298227
4399,1.298227
4400,1.298227
4401,1.298227
4402,1.298227
4403,1.298227
4404,1.298227
4405,1.298227
4406,1.298227
4407,1.298227
4408,1.298227
4409,1.298227
4410,1.298227
4411,1.298227
4412,1.298227
4413,1.298227
4414,1.298227
4415,1.298227
4416,1.298227
4417,1.298227
4418,1.298227
4419,1.298227
4420,1.298227
4421,1.298227
4422,1.298227
4423,1.298227
4424,1.298227
4425,1.298227
4426,1.298227
4427,1.298227
4428,1.298227
4429,1.298227
4430,1.298227
4431,1.298227
4432,1.298227
4433,1.298227
4434,1.298227
4435,1.298227
4436,1.298227
4437,1.298227
4438,1.298227
4439,1.298227
4440,1.298227
4441,1.298227
4442,1.298227
4443,1.298227
4444,1.298227
4445,1.298227
4446,1.298227
4447,1.298227
4448,1.298227
4449,1.298227
4450,1.298227
4451,1.298227
4452,1.298227
4453,1.298227
4454,1.298227
4455,1.298227
4456,1.298227
4457,1.298227
4458,1.298227
4459,1.298227
4460,1.298227
4461,1.298227
4462,1.298227
4463,1.298227
4464,1.298227
4465,1.298227
4466,1.298227
4467,1.298227
4468,1.298227
4469,1.298227
4470,1.298227
4471,1.298227
4472,1.298227
4473,1.298227
4474,1.298227
4475,1.298227
4476,1.298227
4477,1.298227
4478,1.298227
4479,1.298227
4480,1.298227
4481,1.298227
4482,1.298227
4483,1.298227
4484,1.298227
4485,1.298227
4486,1.298227
4487,1.298227
4488,1.298227
4489,1.298227
4490,1.298227
4491,1.298227
4492,1.298227
4493,1.298227
4494,1.298227
4495,1.298227
4496,1.298227
4497,1.298227
4498,1.298227
4499,1.298227
4500,1.298227
4501,1.298227
4502,1.298227
4503,1.298227
4504,1.298227
4505,1.298227
4506,1.298227
4507,1.298227
4508,1.298227
4509,1.298227
4510,1.298227
4511,1.298227
4512,1.298227
4513,1.298227
4514,1.298227
4515,1.298227
4516,1.298227
4517,1.298227
4518,1.298227
4519,1.298227
4520,1.298227
4521,1.298227
4522,1.298227
4523,1.298227
4524,1.298227
4525,1.298227
4526,1.298227
4527,1.298227
4528,1.298227
4529,1.298227
4530,1.298227
4531,1.298227
4532,1.298227
4533,1.298227
4534,1.298227
4535,1.298227
4536,1.298227
4537,1.298227
4538,1.298227
4539,1.298227
4540,1.298227
4541,1.298227
4542,1.298227
4543,1.298227
4544,1.298227
4545,1.298227
4546,1.298227
4547,1.298227
4548,1.298227
4549,1.298227
4550,1.298227
4551,1.298227
4552,1.298227
4553,1.298227
4554,1.298227
4555,1.298227
4556,1.298227
4557,1.298227
4558,1.298227
4559,1.298227
4560,1.298227
4561,1.298227
4562,1.298227
4563,1.298227
4564,1.298227
4565,1.298227
4566,1.298227
4567,1.298227
4568,1.298227
4569,1.298227
4570,1.298227
4571,1.298227
4572,1.298227
4573,1.298227
4574,1.298227
4575,1.298227
4576,1.298227
4577,1.298227
4578,1.298227
4579,1.298227
4580,1.298227
4581,1.298227
4582,1.298227
4583,1.298227
4584,1.298227
4585,1.298227
4586,1.298227
4587,1.298227
4588,1.298227
4589,1.298227
4590,1.298227
4591,1.298227
4592,1.298227
4593,1.298227
4594,1.298227
4595,1.298227
4596,1.298227
4597,1.298227
4598,1.298227
4599,1.298227
4600,1.298227
4601,1.298227
4602,1.298227
4603,1.298227
4604,1.298227
4605,1.298227
4606,1.298227
4607,1.298227
4608,1.298227
4609,1.298227
4610,1.298227
4611,1.298227
4612,1.298227
4613,1.298227
4614,1.298227
4615,1.298227
4616,1.298227
4617,1.298227
4618,1.298227
4619,1.298227
4620,1.298227
4621,1.298227
4622,1.298227
4623,1.298227
4624,1.298227
4625,1.298227
4626,1.298227
4627,1.298227
4628,1.298227
4629,1.298227
4630,1.298227
4631,1.298227
4632,1.298227
4633,1.298227
4634,1.298227
4635,1.298227
4636,1.298227
4637,1.298227
4638,1.298227
4639,1.298227
4640,1.298227
4641,1.298227
4642,1.298227
4643,1.298227
4644,1.298227
4645,1.298227
4646,1.298227
4647,1.298227
4648,1.298227
4649,1.298227
4650,1.298227
4651,1.298227
4652,1.298227
4653,1.298227
4654,1.298227
4655,1.298227
4656,1.298227
4657,1.298227
4658,1.298227
4659,1.298227
4660,1.298227
4661,1.298227
4662,1.298227
4663,1.298227
4664,1.298227
4665,1.298227
4666,1.298227
4667,1.298227
4668,1.298227
4669,1.298227
4670,1.298227
4671,1.298227
4672,1.298227
4673,1.298227
4674,1.298227
4675,1.298227
4676,1.298227
4677,1.298227
4678,1.298227
4679,1.298227
4680,1.298227
4681,1.298227
4682,1.298227
4683,1.298227
4684,1.298227
4685,1.298227
4686,1.298227
4687,1.298227
4688,1.298227
4689,1.298227
4690,1.298227
4691,1.298227
4692,1.298227
4693,1.298227
4694,1.298227
4695,1.298227
4696,1.298227
4697,1.298227
4698,1.298227
4699,1.298227
4700,1.298227
4701,1.298227
4702,1.298227
4703,1.298227
4704,1.298227
4705,1.298227
4706,1.298227
4707,1.298227
4708,1.298227
4709,1.298227
4710,1.298227
4711,1.298227
4712,1.298227
4713,1.298227
4714,1.298227
4715,1.298227
4716,1.298227
4717,1.298227
4718,1.298227
4719,1.298227
4720,1.298227
4721,1.298227
4722,1.298227
4723,1.298227
4724,1.298227
4725,1.298227
4726,1.298227
4727,1.298227
4728,1.298227
4729,1.298227
4730,1.298227
4731,1.298227
4732,1.298227
4733,1.298227
4734,1.298227
4735,1.298227
4736,1.298227
4737,1.298227
4738,1.298227
4739,1.298227
4740,1.298227
4741,1.298227
4742,1.298227
4743,1.298227
4744,1.298227
4745,1.298227
4746,1.298227
4747,1.298227
4748,1.298227
4749,1.298227
4750,1.298227
4751,1.298227
4752,1.298227
4753,1.298227
4754,1.298227
4755,1.298227
4756,1.298227
4757,1.298227
4758,1.298227
4759,1.298227
4760,1.298227
4761,1.298227
4762,1.298227
4763,1.298227
4764,1.298227
4765,1.298227
4766,1.298227
4767,1.298227
4768,1.298227
4769,1.298227
4770,1.298227
4771,1.298227
4772,1.298227
4773,1.298227
4774,1.298227
4775,1.298227
4776,1.298227
4777,1.298227
4778,1.298227
4779,1.298227
4780,1.298227
4781,1.298227
4782,1.298227
4783,1.298227
4784,1.298227
4785,1.298227
4786,1.298227
4787,1.298227
4788,1.298227
4789,1.298227
4790,1.298227
4791,1.298227
4792,1.298227
4793,1.298227
4794,1.298227
4795,1.298227
4796,1.298227
4797,1.298227
4798,1.298227
4799,1.298227
4800,1.298227
4801,1.298227
4802,1.298227
4803,1.298227
4804,1.298227
4805,1.298227
4806,1.298227
4807,1.298227
4808,1.298227
4809,1.298227
4810,1.298227
4811,1.298227
4812,1.298227
4813,1.298227
4814,1.298227
4815,1.298227
4816,1.298227
4817,1.298227
4818,1.298227
4819,1.298227
4820,1.298227
4821,1.298227
4822,1.298227
4823,1.298227
4824,1.298227
4825,1.298227
4826,1.298227
4827,1.298227
4828,1.298227
4829,1.298227
4830,1.298227
4831,1.298227
4832,1.298227
4833,1.298227
4834,1.298227
4835,1.298227
4836,1.298227
4837,1.298227
4838,1.298227
4839,1.298227
4840,1.298227
4841,1.298227
4842,1.298227
4843,1.298227
4844,1.298227
4845,1.298227
4846,1.298227
4847,1.298227
4848,1.298227
4849,1.298227
4850,1.298227
4851,1.298227
4852,1.298227
4853,1.298227
4854,1.298227
4855,1.298227
4856,1.298227
4857,1.298227
4858,1.298227
4859,1.298227
4860,1.298227
4861,1.298227
4862,1.298227
4863,1.298227
4864,1.298227
4865,1.298227
4866,1.298227
4867,1.298227
4868,1.298227
4869,1.298227
4870,1.298227
4871,1.298227
4872,1.298227
4873,1.298227
4874,1.298227
4875,1.298227
4876,1.298227
4877,1.298227
4878,1.298227
4879,1.298227
4880,1.298227
4881,1.298227
4882,1.298227
4883,1.298227
4884,1.298227
4885,1.298227
4886,1.298227
4887,1.298227
4888,1.298227
4889,1.298227
4890,1.298227
4891,1.298227
4892,1.298227
4893,1.298227
4894,1.298227
4895,1.298227
4896,1.298227
4897,1.298227
4898,1.298227
4899,1.298227
4900,1.298227
4901,1.298227
4902,1.298227
4903,1.298227
4904,1.298227
4905,1.298227
4906,1.298227
4907,1.298227
4908,1.298227
4909,1.298227
4910,1.298227
4911,1.298227
4912,1.298227
4913,1.298227
4914,1.298227
4915,1.298227
4916,1.298227
4917,1.298227
4918,1.298227
4919,1.298227
4920,1.298227
4921,1.298227
4922,1.298227
4923,1.298227
4924,1.298227
4925,1.298227
4926,1.298227
4927,1.298227
4928,1.298227
4929,1.298227
4930,1.298227
4931,1.298227
4932,1.298227
4933,1.298227
4934,1.298227
4935,1.298227
4936,1.298227
4937,1.298227
4938,1.298227
4939,1.298227
4940,1.298227
4941,1.298227
4942,1.298227
4943,1.298227
4944,1.298227
4945,1.298227
4946,1.298227
4947,1.298227
4948,1.298227
4949,1.298227
4950,1.298227
4951,1.298227
4952,1.298227
4953,1.298227
4954,1.298227
4955,1.298227
4956,1.298227
4957,1.298227
4958,1.298227
4959,1.298227
4960,1.298227
4961,1.298227
4962,1.298227
4963,1.298227
4964,1.298227
4965,1.298227
4966,1.298227
4967,1.298227
4968,1.298227
4969,1.298227
4970,1.298227
4971,1.298227
4972,1.298227
4973,1.298227
4974,1.298227
4975,1.298227
4976,1.298227
4977,1.298227
4978,1.298227
4979,1.298227
4980,1.298227
4981,1.298227
4982,1.298227
4983,1.298227
4984,1.298227
4985,1.298227
4986,1.298227
4987,1.298227
4988,1.298227
4989,1.298227
4990,1.298227
4991,1.298227
4992,1.298227
4993,1.298227
4994,1.298227
4995,1.298227
4996,1.298227
4997,1.298227
4998,1.298227
4999,1.298227
,
 Waktu yang dibutuhkan : 5000 sekon,
